DWS Measurement v9.2.8 
08/23/18 10:49:12 AM

Correlation Mode:	Cross
Geometry:	Transmission
Analysis Type:	DWS MicroRheology
Multi-Tau Duration (s):	120
Echo Duration (s):	60
Wavelength (nm):	685.0
Temperature (°C):	40.00
Cuvette Thickness (mm):	10.00
Absorption Length (mm):	175.150
Solvent:	Water
Solvent Refractive Index:	1.328
Particle Radius (nm):	465.0
l* (microns):	842.21
Mean Count Rate (kHz):	121.6


Lag time (s)	g2-1

1.250000E-8	0.995903
2.500000E-8	0.999874
3.750000E-8	0.987350
5.000000E-8	1.002917
6.250000E-8	1.004742
7.500000E-8	0.991199
8.750000E-8	0.998310
1.000000E-7	0.995278
1.125000E-7	1.005800
1.250000E-7	0.985964
1.375000E-7	1.003580
1.500000E-7	1.005186
1.625000E-7	0.992302
1.750000E-7	0.988318
1.875000E-7	1.011876
2.000000E-7	1.019286
2.125000E-7	1.007508
2.375000E-7	0.995123
2.625000E-7	0.995801
2.875000E-7	1.007717
3.125000E-7	0.980906
3.375000E-7	1.007454
3.625000E-7	1.001570
3.875000E-7	0.990307
4.125000E-7	0.994129
4.625000E-7	0.991804
5.125000E-7	0.993859
5.625000E-7	0.990065
6.125000E-7	0.995747
6.625000E-7	0.986495
7.125000E-7	0.993914
7.625000E-7	0.985811
8.125000E-7	0.981438
9.125000E-7	0.981856
1.012500E-6	0.987506
1.112500E-6	0.989437
1.212500E-6	0.995097
1.312500E-6	0.995277
1.412500E-6	0.990957
1.512500E-6	0.992140
1.612500E-6	0.991598
1.812500E-6	0.990642
2.012500E-6	0.987617
2.212500E-6	0.985836
2.412500E-6	0.981005
2.612500E-6	0.977778
2.812500E-6	0.980835
3.012500E-6	0.981560
3.212500E-6	0.983482
3.612500E-6	0.979013
4.012500E-6	0.974560
4.412500E-6	0.976085
4.812500E-6	0.978524
5.212500E-6	0.973848
5.612500E-6	0.970923
6.012500E-6	0.966824
6.412500E-6	0.970407
7.212500E-6	0.965777
8.012500E-6	0.967755
8.812500E-6	0.964336
9.612500E-6	0.960708
1.041250E-5	0.959426
1.121250E-5	0.958780
1.201250E-5	0.956334
1.281250E-5	0.955053
1.441250E-5	0.953247
1.601250E-5	0.952500
1.761250E-5	0.949550
1.921250E-5	0.947472
2.081250E-5	0.945271
2.241250E-5	0.944112
2.401250E-5	0.944452
2.561250E-5	0.940893
2.881250E-5	0.935606
3.201250E-5	0.933666
3.521250E-5	0.934089
3.841250E-5	0.931497
4.161250E-5	0.929727
4.481250E-5	0.927388
4.801250E-5	0.923288
5.121250E-5	0.922530
5.761250E-5	0.920734
6.401250E-5	0.918092
7.041250E-5	0.913958
7.681250E-5	0.913395
8.321250E-5	0.913426
8.961250E-5	0.909132
9.601250E-5	0.908002
0.000102	0.906837
0.000115	0.903593
0.000128	0.901491
0.000141	0.899443
0.000154	0.897705
0.000166	0.896512
0.000179	0.894803
0.000192	0.893280
0.000205	0.891956
0.000230	0.889610
0.000256	0.887299
0.000282	0.885847
0.000307	0.884336
0.000333	0.882981
0.000358	0.882063
0.000384	0.880492
0.000410	0.879258
0.000461	0.876949
0.000512	0.875792
0.000563	0.873300
0.000614	0.871936
0.000666	0.870379
0.000717	0.869166
0.000768	0.867729
0.000819	0.866543
0.000922	0.863695
0.001024	0.861941
0.001126	0.859874
0.001229	0.858153
0.001331	0.856386
0.001434	0.854260
0.001536	0.852801
0.001638	0.851356
0.001843	0.848481
0.002048	0.845443
0.002253	0.842999
0.002458	0.840329
0.002662	0.837859
0.002867	0.835298
0.003072	0.833134
0.003277	0.830893
0.003686	0.826664
0.004096	0.822094
0.004506	0.817675
0.004915	0.813725
0.005325	0.810209
0.005734	0.806215
0.006144	0.802670
0.006554	0.799502
0.007373	0.792219
0.008192	0.784981
0.009011	0.778360
0.009830	0.772019
0.010650	0.765349
0.011469	0.758968
0.012288	0.752869
0.013107	0.748314
0.014746	0.736797
0.016384	0.726004
0.018022	0.714819
0.019661	0.703631
0.021299	0.693085
0.022938	0.682801
0.024576	0.672812
0.026214	0.664312
0.029491	0.644548
0.032768	0.625463
0.036045	0.607640
0.039322	0.589899
0.042598	0.572222
0.045875	0.555060
0.049152	0.538752
0.052429	0.525265
0.058982	0.494829
0.065536	0.465656
0.072090	0.438551
0.078643	0.413864
0.085197	0.390598
0.091750	0.366597
0.098304	0.341259
0.104858	0.319140
0.117965	0.260436
0.131072	0.221535
0.144179	0.176879
0.157286	0.146268
0.170394	0.114454
0.183501	0.095832
0.399815	0.011210
0.599722	0.001769
0.799630	0.000414
0.999537	0.004100
1.199445	0.002229
1.399352	0.002628
1.599260	0.002921
1.799167	6.405212E-5
1.999075	0.002695
2.198982	-0.000210
2.398890	0.000771
2.598797	0.002129
2.798704	0.000663
2.998612	-0.001217
3.198519	-0.001581
3.398427	2.769666E-5
3.598334	0.002346
3.798242	0.001708
3.998149	0.001228
4.198057	-0.001151
4.397964	0.000233
4.597872	-0.000872
4.797779	-0.001742
4.997687	0.001155
5.197594	-0.000931
5.397502	-0.001494
5.597409	-0.001394
5.797316	0.000223
5.997224	-0.002966
6.197131	-0.002055
6.397039	-0.001689
6.596946	-0.002800
6.796854	-0.000318
6.996761	-0.000889
7.196669	-0.002009
7.396576	-0.000857
7.596484	-0.003581
7.796391	-0.003852
7.996299	-0.002883
8.196206	-0.006276
8.396113	-0.004366
8.596021	-0.005376
8.795928	-0.002337
8.995836	-0.003289
9.195743	-0.004311
9.395651	-0.003913
9.595558	-0.000705
9.795466	-0.001990
9.995373	-0.002846
10.195281	-0.005016
10.395188	-0.004203
10.595096	-0.003700
10.795003	-0.004722
10.994911	-0.004919
11.194818	-0.005538
11.394725	-0.004040
11.594633	-0.004712
11.794540	-0.005483
11.994448	-0.006237
12.194355	-0.006456
12.394263	-0.005920
12.594170	-0.004634
12.794078	-0.007282


Count Rate  History (kHz) 
Elapsed Time (s)	Count Rate (kHz)

6.420000	88.845278
13.380000	126.422596
20.339000	127.260097
27.309000	166.162290
34.270000	149.961746
41.239000	96.923137
48.209000	123.167086
55.169000	106.708209
62.139000	111.657849
69.098000	113.922986
76.069000	127.980346
83.039000	93.713060
89.997000	113.113329
96.970000	156.512044
103.938000	120.190150
110.899000	116.828394
117.869000	108.556079
124.827000	107.506629
125.456146	122.551440
126.504722	123.005299
127.553298	121.185984
128.392158	122.058471
129.440734	123.890484
130.489310	123.987675
131.537886	122.288021
132.586462	121.595623
133.635038	120.985639
134.473899	119.803690
135.522475	122.891307
136.571051	121.102342
137.619627	123.717649
138.668203	122.266608
139.716779	121.301309
140.555640	121.259593
141.604216	121.373684
142.652792	121.412550
143.701368	121.869792
144.749944	120.346620
145.798520	120.277930
146.637381	121.025274
147.685957	121.062084
148.734533	121.880040
149.783109	121.097420
150.831685	120.666150
151.880261	121.835411
152.719122	120.861498
153.767698	122.816950
154.816274	121.832108
155.864850	123.581929
156.913426	121.215647
157.962002	121.632903
159.010578	122.045519
159.849438	122.230680
160.898014	121.967034
161.946590	121.101832
162.995166	123.906486
164.043742	122.375669
165.092318	120.978803
165.931179	122.865699
166.979755	122.733892
168.028331	124.209344
169.076907	121.509339
170.125483	123.041390
171.174059	123.270464
172.012920	121.788526
173.061496	122.563764
174.110072	123.077937
175.158648	121.064240
176.207224	120.822757
177.255800	123.586930
178.304376	122.524515
179.143237	121.209252
180.191813	122.871560
181.240389	122.620469
182.288965	122.711928
183.337541	124.101821
184.386117	121.649522

Measurement Notes:

